v1	Id(M1)
Step Information: X=0  (Run: 1/21)
0.000000000000000e+000	0.000000e+000
1.000000000000000e-002	1.098180e-009
2.000000000000000e-002	1.896027e-009
3.000000000000000e-002	2.439693e-009
4.000000000000000e-002	2.788434e-009
5.000000000000000e-002	3.003938e-009
6.000000000000001e-002	3.137036e-009
7.000000000000001e-002	3.222008e-009
8.000000000000000e-002	3.279201e-009
9.000000000000000e-002	3.320040e-009
9.999999999999999e-002	3.350906e-009
1.100000000000000e-001	3.375445e-009
1.200000000000000e-001	3.395808e-009
1.300000000000000e-001	3.413316e-009
1.400000000000000e-001	3.428807e-009
1.500000000000000e-001	3.442830e-009
1.600000000000000e-001	3.455758e-009
1.700000000000000e-001	3.467850e-009
1.800000000000000e-001	3.479291e-009
1.900000000000000e-001	3.490215e-009
2.000000000000000e-001	3.500721e-009
2.100000000000001e-001	3.510883e-009
2.200000000000001e-001	3.520760e-009
2.300000000000001e-001	3.530394e-009
2.400000000000001e-001	3.539822e-009
2.500000000000001e-001	3.549069e-009
2.600000000000001e-001	3.558158e-009
2.700000000000001e-001	3.567105e-009
2.800000000000001e-001	3.575924e-009
2.900000000000001e-001	3.584625e-009
3.000000000000001e-001	3.593218e-009
3.100000000000001e-001	3.601708e-009
3.200000000000001e-001	3.610101e-009
3.300000000000001e-001	3.618400e-009
3.400000000000001e-001	3.626607e-009
3.500000000000001e-001	3.634725e-009
3.600000000000002e-001	3.642754e-009
3.700000000000002e-001	3.650693e-009
3.800000000000002e-001	3.658543e-009
3.900000000000002e-001	3.666300e-009
4.000000000000002e-001	3.673963e-009
4.100000000000002e-001	3.681530e-009
4.200000000000002e-001	3.688997e-009
4.300000000000002e-001	3.696359e-009
4.400000000000002e-001	3.703614e-009
4.500000000000002e-001	3.710755e-009
4.600000000000002e-001	3.717777e-009
4.700000000000003e-001	3.724674e-009
4.800000000000003e-001	3.731440e-009
4.900000000000003e-001	3.738068e-009
5.000000000000002e-001	3.744549e-009
5.100000000000002e-001	3.750876e-009
5.200000000000002e-001	3.757040e-009
5.300000000000003e-001	3.763031e-009
5.400000000000003e-001	3.768839e-009
5.500000000000003e-001	3.774454e-009
5.600000000000003e-001	3.779863e-009
5.700000000000003e-001	3.785055e-009
5.800000000000003e-001	3.790017e-009
5.900000000000003e-001	3.794734e-009
6.000000000000003e-001	3.799193e-009
6.100000000000003e-001	3.803377e-009
6.200000000000003e-001	3.807270e-009
6.300000000000003e-001	3.810856e-009
6.400000000000004e-001	3.814114e-009
6.500000000000004e-001	3.817027e-009
6.600000000000004e-001	3.819573e-009
6.700000000000004e-001	3.821730e-009
6.800000000000004e-001	3.823476e-009
6.900000000000004e-001	3.824786e-009
7.000000000000004e-001	3.825635e-009
7.100000000000004e-001	3.825995e-009
7.200000000000004e-001	3.825837e-009
7.300000000000004e-001	3.825133e-009
7.400000000000004e-001	3.823848e-009
7.500000000000004e-001	3.821951e-009
7.600000000000005e-001	3.819406e-009
7.700000000000005e-001	3.816174e-009
7.800000000000005e-001	3.812217e-009
7.900000000000005e-001	3.807492e-009
8.000000000000005e-001	3.801957e-009
8.100000000000005e-001	3.795564e-009
8.200000000000005e-001	3.788266e-009
8.300000000000005e-001	3.780010e-009
8.400000000000005e-001	3.770742e-009
8.500000000000005e-001	3.760406e-009
8.600000000000005e-001	3.748941e-009
8.700000000000006e-001	3.736284e-009
8.800000000000006e-001	3.722368e-009
8.900000000000006e-001	3.707124e-009
9.000000000000006e-001	3.690477e-009
9.100000000000006e-001	3.672348e-009
9.200000000000006e-001	3.652658e-009
9.300000000000006e-001	3.631318e-009
9.400000000000006e-001	3.608239e-009
9.500000000000006e-001	3.583325e-009
9.600000000000006e-001	3.556474e-009
9.700000000000006e-001	3.527582e-009
9.800000000000007e-001	3.496537e-009
9.900000000000007e-001	3.463222e-009
1.000000000000001e+000	3.427513e-009
1.010000000000001e+000	3.389281e-009
1.020000000000001e+000	3.348390e-009
1.030000000000001e+000	3.304695e-009
1.040000000000001e+000	3.258046e-009
1.050000000000001e+000	3.208285e-009
1.060000000000001e+000	3.155245e-009
1.070000000000001e+000	3.098749e-009
1.080000000000001e+000	3.038614e-009
1.090000000000001e+000	2.974645e-009
1.100000000000000e+000	2.906639e-009
Step Information: X=50m  (Run: 2/21)
0.000000000000000e+000	5.250579e-014
1.000000000000000e-002	4.213768e-009
2.000000000000000e-002	7.279348e-009
3.000000000000000e-002	9.371870e-009
4.000000000000000e-002	1.071650e-008
5.000000000000000e-002	1.154851e-008
6.000000000000001e-002	1.206264e-008
7.000000000000001e-002	1.239079e-008
8.000000000000000e-002	1.261148e-008
9.000000000000000e-002	1.276889e-008
9.999999999999999e-002	1.288771e-008
1.100000000000000e-001	1.298207e-008
1.200000000000000e-001	1.306030e-008
1.300000000000000e-001	1.312752e-008
1.400000000000000e-001	1.318697e-008
1.500000000000000e-001	1.324078e-008
1.600000000000000e-001	1.329041e-008
1.700000000000000e-001	1.333684e-008
1.800000000000000e-001	1.338081e-008
1.900000000000000e-001	1.342284e-008
2.000000000000000e-001	1.346330e-008
2.100000000000001e-001	1.350251e-008
2.200000000000001e-001	1.354068e-008
2.300000000000001e-001	1.357798e-008
2.400000000000001e-001	1.361457e-008
2.500000000000001e-001	1.365055e-008
2.600000000000001e-001	1.368600e-008
2.700000000000001e-001	1.372101e-008
2.800000000000001e-001	1.375563e-008
2.900000000000001e-001	1.378990e-008
3.000000000000001e-001	1.382388e-008
3.100000000000001e-001	1.385760e-008
3.200000000000001e-001	1.389108e-008
3.300000000000001e-001	1.392435e-008
3.400000000000001e-001	1.395743e-008
3.500000000000001e-001	1.399033e-008
3.600000000000002e-001	1.402308e-008
3.700000000000002e-001	1.405567e-008
3.800000000000002e-001	1.408813e-008
3.900000000000002e-001	1.412046e-008
4.000000000000002e-001	1.415267e-008
4.100000000000002e-001	1.418476e-008
4.200000000000002e-001	1.421674e-008
4.300000000000002e-001	1.424860e-008
4.400000000000002e-001	1.428036e-008
4.500000000000002e-001	1.431201e-008
4.600000000000002e-001	1.434355e-008
4.700000000000003e-001	1.437499e-008
4.800000000000003e-001	1.440632e-008
4.900000000000003e-001	1.443753e-008
5.000000000000002e-001	1.446864e-008
5.100000000000002e-001	1.449963e-008
5.200000000000002e-001	1.453049e-008
5.300000000000003e-001	1.456123e-008
5.400000000000003e-001	1.459184e-008
5.500000000000003e-001	1.462231e-008
5.600000000000003e-001	1.465263e-008
5.700000000000003e-001	1.468281e-008
5.800000000000003e-001	1.471282e-008
5.900000000000003e-001	1.474266e-008
6.000000000000003e-001	1.477233e-008
6.100000000000003e-001	1.480180e-008
6.200000000000003e-001	1.483108e-008
6.300000000000003e-001	1.486014e-008
6.400000000000004e-001	1.488897e-008
6.500000000000004e-001	1.491757e-008
6.600000000000004e-001	1.494591e-008
6.700000000000004e-001	1.497398e-008
6.800000000000004e-001	1.500176e-008
6.900000000000004e-001	1.502924e-008
7.000000000000004e-001	1.505639e-008
7.100000000000004e-001	1.508320e-008
7.200000000000004e-001	1.510965e-008
7.300000000000004e-001	1.513571e-008
7.400000000000004e-001	1.516135e-008
7.500000000000004e-001	1.518656e-008
7.600000000000005e-001	1.521131e-008
7.700000000000005e-001	1.523556e-008
7.800000000000005e-001	1.525930e-008
7.900000000000005e-001	1.528248e-008
8.000000000000005e-001	1.530507e-008
8.100000000000005e-001	1.532705e-008
8.200000000000005e-001	1.534836e-008
8.300000000000005e-001	1.536898e-008
8.400000000000005e-001	1.538886e-008
8.500000000000005e-001	1.540795e-008
8.600000000000005e-001	1.542622e-008
8.700000000000006e-001	1.544361e-008
8.800000000000006e-001	1.546008e-008
8.900000000000006e-001	1.547556e-008
9.000000000000006e-001	1.549000e-008
9.100000000000006e-001	1.550334e-008
9.200000000000006e-001	1.551553e-008
9.300000000000006e-001	1.552648e-008
9.400000000000006e-001	1.553614e-008
9.500000000000006e-001	1.554443e-008
9.600000000000006e-001	1.555126e-008
9.700000000000006e-001	1.555657e-008
9.800000000000007e-001	1.556026e-008
9.900000000000007e-001	1.556224e-008
1.000000000000001e+000	1.556242e-008
1.010000000000001e+000	1.556070e-008
1.020000000000001e+000	1.555697e-008
1.030000000000001e+000	1.555112e-008
1.040000000000001e+000	1.554303e-008
1.050000000000001e+000	1.553258e-008
1.060000000000001e+000	1.551964e-008
1.070000000000001e+000	1.550408e-008
1.080000000000001e+000	1.548575e-008
1.090000000000001e+000	1.546450e-008
1.100000000000000e+000	1.544018e-008
Step Information: X=100m  (Run: 3/21)
0.000000000000000e+000	2.490506e-013
1.000000000000000e-002	1.531702e-008
2.000000000000000e-002	2.651589e-008
3.000000000000000e-002	3.420738e-008
4.000000000000000e-002	3.918176e-008
5.000000000000000e-002	4.227542e-008
6.000000000000001e-002	4.419196e-008
7.000000000000001e-002	4.541511e-008
8.000000000000000e-002	4.623607e-008
9.000000000000000e-002	4.681979e-008
9.999999999999999e-002	4.725883e-008
1.100000000000000e-001	4.760615e-008
1.200000000000000e-001	4.789306e-008
1.300000000000000e-001	4.813874e-008
1.400000000000000e-001	4.835539e-008
1.500000000000000e-001	4.855097e-008
1.600000000000000e-001	4.873093e-008
1.700000000000000e-001	4.889900e-008
1.800000000000000e-001	4.905790e-008
1.900000000000000e-001	4.920956e-008
2.000000000000000e-001	4.935544e-008
2.100000000000001e-001	4.949665e-008
2.200000000000001e-001	4.963404e-008
2.300000000000001e-001	4.976825e-008
2.400000000000001e-001	4.989981e-008
2.500000000000001e-001	5.002915e-008
2.600000000000001e-001	5.015659e-008
2.700000000000001e-001	5.028242e-008
2.800000000000001e-001	5.040686e-008
2.900000000000001e-001	5.053010e-008
3.000000000000001e-001	5.065231e-008
3.100000000000001e-001	5.077360e-008
3.200000000000001e-001	5.089410e-008
3.300000000000001e-001	5.101390e-008
3.400000000000001e-001	5.113308e-008
3.500000000000001e-001	5.125172e-008
3.600000000000002e-001	5.136987e-008
3.700000000000002e-001	5.148760e-008
3.800000000000002e-001	5.160494e-008
3.900000000000002e-001	5.172194e-008
4.000000000000002e-001	5.183864e-008
4.100000000000002e-001	5.195506e-008
4.200000000000002e-001	5.207123e-008
4.300000000000002e-001	5.218718e-008
4.400000000000002e-001	5.230292e-008
4.500000000000002e-001	5.241849e-008
4.600000000000002e-001	5.253388e-008
4.700000000000003e-001	5.264912e-008
4.800000000000003e-001	5.276422e-008
4.900000000000003e-001	5.287919e-008
5.000000000000002e-001	5.299403e-008
5.100000000000002e-001	5.310876e-008
5.200000000000002e-001	5.322338e-008
5.300000000000003e-001	5.333790e-008
5.400000000000003e-001	5.345232e-008
5.500000000000003e-001	5.356664e-008
5.600000000000003e-001	5.368086e-008
5.700000000000003e-001	5.379499e-008
5.800000000000003e-001	5.390902e-008
5.900000000000003e-001	5.402295e-008
6.000000000000003e-001	5.413679e-008
6.100000000000003e-001	5.425052e-008
6.200000000000003e-001	5.436414e-008
6.300000000000003e-001	5.447765e-008
6.400000000000004e-001	5.459104e-008
6.500000000000004e-001	5.470430e-008
6.600000000000004e-001	5.481743e-008
6.700000000000004e-001	5.493042e-008
6.800000000000004e-001	5.504326e-008
6.900000000000004e-001	5.515593e-008
7.000000000000004e-001	5.526843e-008
7.100000000000004e-001	5.538074e-008
7.200000000000004e-001	5.549285e-008
7.300000000000004e-001	5.560474e-008
7.400000000000004e-001	5.571641e-008
7.500000000000004e-001	5.582782e-008
7.600000000000005e-001	5.593896e-008
7.700000000000005e-001	5.604982e-008
7.800000000000005e-001	5.616037e-008
7.900000000000005e-001	5.627058e-008
8.000000000000005e-001	5.638044e-008
8.100000000000005e-001	5.648992e-008
8.200000000000005e-001	5.659900e-008
8.300000000000005e-001	5.670764e-008
8.400000000000005e-001	5.681581e-008
8.500000000000005e-001	5.692348e-008
8.600000000000005e-001	5.703062e-008
8.700000000000006e-001	5.713719e-008
8.800000000000006e-001	5.724316e-008
8.900000000000006e-001	5.734847e-008
9.000000000000006e-001	5.745310e-008
9.100000000000006e-001	5.755699e-008
9.200000000000006e-001	5.766010e-008
9.300000000000006e-001	5.776238e-008
9.400000000000006e-001	5.786377e-008
9.500000000000006e-001	5.796423e-008
9.600000000000006e-001	5.806368e-008
9.700000000000006e-001	5.816206e-008
9.800000000000007e-001	5.825932e-008
9.900000000000007e-001	5.835539e-008
1.000000000000001e+000	5.845018e-008
1.010000000000001e+000	5.854363e-008
1.020000000000001e+000	5.863565e-008
1.030000000000001e+000	5.872615e-008
1.040000000000001e+000	5.881506e-008
1.050000000000001e+000	5.890226e-008
1.060000000000001e+000	5.898768e-008
1.070000000000001e+000	5.907119e-008
1.080000000000001e+000	5.915269e-008
1.090000000000001e+000	5.923206e-008
1.100000000000000e+000	5.930919e-008
Step Information: X=150m  (Run: 4/21)
0.000000000000000e+000	6.626220e-013
1.000000000000000e-002	5.114921e-008
2.000000000000000e-002	8.911150e-008
3.000000000000000e-002	1.156776e-007
4.000000000000000e-002	1.332073e-007
5.000000000000000e-002	1.442946e-007
6.000000000000001e-002	1.512311e-007
7.000000000000001e-002	1.556683e-007
8.000000000000000e-002	1.586365e-007
9.000000000000000e-002	1.607330e-007
9.999999999999999e-002	1.622970e-007
1.100000000000000e-001	1.635237e-007
1.200000000000000e-001	1.645286e-007
1.300000000000000e-001	1.653826e-007
1.400000000000000e-001	1.661305e-007
1.500000000000000e-001	1.668017e-007
1.600000000000000e-001	1.674159e-007
1.700000000000000e-001	1.679871e-007
1.800000000000000e-001	1.685250e-007
1.900000000000000e-001	1.690367e-007
2.000000000000000e-001	1.695276e-007
2.100000000000001e-001	1.700015e-007
2.200000000000001e-001	1.704616e-007
2.300000000000001e-001	1.709103e-007
2.400000000000001e-001	1.713495e-007
2.500000000000001e-001	1.717806e-007
2.600000000000001e-001	1.722048e-007
2.700000000000001e-001	1.726233e-007
2.800000000000001e-001	1.730368e-007
2.900000000000001e-001	1.734459e-007
3.000000000000001e-001	1.738513e-007
3.100000000000001e-001	1.742534e-007
3.200000000000001e-001	1.746527e-007
3.300000000000001e-001	1.750495e-007
3.400000000000001e-001	1.754440e-007
3.500000000000001e-001	1.758366e-007
3.600000000000002e-001	1.762275e-007
3.700000000000002e-001	1.766168e-007
3.800000000000002e-001	1.770048e-007
3.900000000000002e-001	1.773917e-007
4.000000000000002e-001	1.777774e-007
4.100000000000002e-001	1.781622e-007
4.200000000000002e-001	1.785462e-007
4.300000000000002e-001	1.789294e-007
4.400000000000002e-001	1.793119e-007
4.500000000000002e-001	1.796939e-007
4.600000000000002e-001	1.800753e-007
4.700000000000003e-001	1.804563e-007
4.800000000000003e-001	1.808369e-007
4.900000000000003e-001	1.812172e-007
5.000000000000002e-001	1.815971e-007
5.100000000000002e-001	1.819768e-007
5.200000000000002e-001	1.823562e-007
5.300000000000003e-001	1.827355e-007
5.400000000000003e-001	1.831145e-007
5.500000000000003e-001	1.834935e-007
5.600000000000003e-001	1.838723e-007
5.700000000000003e-001	1.842510e-007
5.800000000000003e-001	1.846297e-007
5.900000000000003e-001	1.850083e-007
6.000000000000003e-001	1.853869e-007
6.100000000000003e-001	1.857654e-007
6.200000000000003e-001	1.861440e-007
6.300000000000003e-001	1.865225e-007
6.400000000000004e-001	1.869010e-007
6.500000000000004e-001	1.872795e-007
6.600000000000004e-001	1.876581e-007
6.700000000000004e-001	1.880367e-007
6.800000000000004e-001	1.884153e-007
6.900000000000004e-001	1.887939e-007
7.000000000000004e-001	1.891725e-007
7.100000000000004e-001	1.895512e-007
7.200000000000004e-001	1.899299e-007
7.300000000000004e-001	1.903086e-007
7.400000000000004e-001	1.906873e-007
7.500000000000004e-001	1.910661e-007
7.600000000000005e-001	1.914448e-007
7.700000000000005e-001	1.918235e-007
7.800000000000005e-001	1.922022e-007
7.900000000000005e-001	1.925809e-007
8.000000000000005e-001	1.929595e-007
8.100000000000005e-001	1.933381e-007
8.200000000000005e-001	1.937166e-007
8.300000000000005e-001	1.940950e-007
8.400000000000005e-001	1.944733e-007
8.500000000000005e-001	1.948515e-007
8.600000000000005e-001	1.952295e-007
8.700000000000006e-001	1.956073e-007
8.800000000000006e-001	1.959850e-007
8.900000000000006e-001	1.963624e-007
9.000000000000006e-001	1.967395e-007
9.100000000000006e-001	1.971164e-007
9.200000000000006e-001	1.974930e-007
9.300000000000006e-001	1.978692e-007
9.400000000000006e-001	1.982450e-007
9.500000000000006e-001	1.986203e-007
9.600000000000006e-001	1.989952e-007
9.700000000000006e-001	1.993696e-007
9.800000000000007e-001	1.997434e-007
9.900000000000007e-001	2.001166e-007
1.000000000000001e+000	2.004891e-007
1.010000000000001e+000	2.008609e-007
1.020000000000001e+000	2.012319e-007
1.030000000000001e+000	2.016020e-007
1.040000000000001e+000	2.019713e-007
1.050000000000001e+000	2.023395e-007
1.060000000000001e+000	2.027067e-007
1.070000000000001e+000	2.030728e-007
1.080000000000001e+000	2.034377e-007
1.090000000000001e+000	2.038012e-007
1.100000000000000e+000	2.041633e-007
Step Information: X=200m  (Run: 5/21)
0.000000000000000e+000	1.289851e-012
1.000000000000000e-002	1.515508e-007
2.000000000000000e-002	2.679567e-007
3.000000000000000e-002	3.530342e-007
4.000000000000000e-002	4.119745e-007
5.000000000000000e-002	4.509588e-007
6.000000000000001e-002	4.761123e-007
7.000000000000001e-002	4.924148e-007
8.000000000000000e-002	5.033011e-007
9.000000000000000e-002	5.109033e-007
9.999999999999999e-002	5.164829e-007
1.100000000000000e-001	5.207812e-007
1.200000000000000e-001	5.242401e-007
1.300000000000000e-001	5.271307e-007
1.400000000000000e-001	5.296243e-007
1.500000000000000e-001	5.318328e-007
1.600000000000000e-001	5.338309e-007
1.700000000000000e-001	5.356706e-007
1.800000000000000e-001	5.373884e-007
1.900000000000000e-001	5.390107e-007
2.000000000000000e-001	5.405572e-007
2.100000000000001e-001	5.420424e-007
2.200000000000001e-001	5.434777e-007
2.300000000000001e-001	5.448717e-007
2.400000000000001e-001	5.462313e-007
2.500000000000001e-001	5.475620e-007
2.600000000000001e-001	5.488682e-007
2.700000000000001e-001	5.501533e-007
2.800000000000001e-001	5.514205e-007
2.900000000000001e-001	5.526721e-007
3.000000000000001e-001	5.539101e-007
3.100000000000001e-001	5.551364e-007
3.200000000000001e-001	5.563522e-007
3.300000000000001e-001	5.575589e-007
3.400000000000001e-001	5.587576e-007
3.500000000000001e-001	5.599491e-007
3.600000000000002e-001	5.611343e-007
3.700000000000002e-001	5.623138e-007
3.800000000000002e-001	5.634884e-007
3.900000000000002e-001	5.646584e-007
4.000000000000002e-001	5.658243e-007
4.100000000000002e-001	5.669868e-007
4.200000000000002e-001	5.681459e-007
4.300000000000002e-001	5.693023e-007
4.400000000000002e-001	5.704560e-007
4.500000000000002e-001	5.716074e-007
4.600000000000002e-001	5.727568e-007
4.700000000000003e-001	5.739043e-007
4.800000000000003e-001	5.750501e-007
4.900000000000003e-001	5.761946e-007
5.000000000000002e-001	5.773376e-007
5.100000000000002e-001	5.784796e-007
5.200000000000002e-001	5.796205e-007
5.300000000000003e-001	5.807606e-007
5.400000000000003e-001	5.818998e-007
5.500000000000003e-001	5.830384e-007
5.600000000000003e-001	5.841765e-007
5.700000000000003e-001	5.853140e-007
5.800000000000003e-001	5.864512e-007
5.900000000000003e-001	5.875880e-007
6.000000000000003e-001	5.887246e-007
6.100000000000003e-001	5.898609e-007
6.200000000000003e-001	5.909972e-007
6.300000000000003e-001	5.921333e-007
6.400000000000004e-001	5.932695e-007
6.500000000000004e-001	5.944057e-007
6.600000000000004e-001	5.955419e-007
6.700000000000004e-001	5.966783e-007
6.800000000000004e-001	5.978147e-007
6.900000000000004e-001	5.989514e-007
7.000000000000004e-001	6.000882e-007
7.100000000000004e-001	6.012253e-007
7.200000000000004e-001	6.023627e-007
7.300000000000004e-001	6.035003e-007
7.400000000000004e-001	6.046382e-007
7.500000000000004e-001	6.057765e-007
7.600000000000005e-001	6.069151e-007
